#Apogee (m) = 560.30

#Error code = 4 
#Time (s) Altitude (m)
0.00 0.00
0.25 -1.30
0.50 -2.40
0.75 -3.60
1.00 -3.60
1.25 -4.50
1.50 -6.60
1.75 -4.20
2.00 -5.10
2.25 -5.70
2.50 47.00
2.75 129.80
3.00 213.80
3.25 284.50
3.50 356.90
3.75 438.00
4.00 463.50
4.25 479.30
4.50 475.50
4.75 476.30
5.00 479.10
5.25 468.90
5.50 459.10
5.75 444.90
6.00 424.70
6.25 394.80
6.50 370.40
6.75 348.90
7.00 332.50
7.25 321.10
7.50 307.00
7.75 293.50
8.00 280.10
8.25 267.80
8.50 258.80
8.75 247.70
9.00 236.40
9.25 225.50
9.50 215.30
9.75 207.70
10.00 197.70
10.25 188.70
10.50 179.50
10.75 171.80
11.00 163.40
11.25 157.20
11.50 149.20
11.75 142.10
12.00 134.30
12.25 127.70
12.50 123.10
12.75 116.40
13.00 110.50
13.25 104.50
13.50 99.10
13.75 94.80
14.00 89.60
14.25 84.50
14.50 80.10
14.75 75.00
15.00 71.90
15.25 67.90
15.50 63.70
15.75 59.90
16.00 55.90
16.25 53.30
16.50 50.00
16.75 46.70
17.00 43.60
17.25 40.80
17.50 38.00
17.75 36.20
18.00 33.30
18.25 31.10
18.50 28.70
18.75 26.70
19.00 25.00
19.25 23.00
19.50 21.20
19.75 19.60
20.00 17.90
20.25 16.60
20.50 15.10
20.75 13.20
21.00 11.90
21.25 10.80
21.50 9.80
21.75 8.50
22.00 7.40
22.25 6.60
22.50 5.50
22.75 4.40
23.00 3.60
23.25 2.20
23.50 -6.90
23.75 -13.90
24.00 -19.80
24.25 -2.50
24.50 -10.00
24.75 -11.90
25.00 -13.70
25.25 -11.20
25.50 -11.20
25.75 -11.10
26.00 -11.00
26.25 -10.90
26.50 -10.90
26.75 -11.00
27.00 -11.00
27.25 -11.10
27.50 -11.10
27.75 -11.10
28.00 0.00
28.25 -0.40
28.50 -0.80
28.75 -1.20
29.00 -1.50
29.25 -1.50
29.50 -2.10
29.75 -0.80
30.00 -1.70
30.25 3.10
30.50 94.00
30.75 225.40
31.00 362.30
31.25 455.00
31.50 525.70
31.75 549.10
32.00 560.30
32.25 516.60
32.50 477.90
32.75 434.30
33.00 405.70
33.25 378.90
33.50 355.30
33.75 340.50
34.00 323.40
34.25 308.50
34.50 293.70
34.75 279.90
35.00 269.80
35.25 256.80
35.50 245.00
35.75 233.60
36.00 222.30
36.25 211.90
36.50 204.90
36.75 195.30
37.00 186.30
37.25 177.70
37.50 169.30
37.75 163.40
38.00 155.40
38.25 147.80
38.50 141.00
38.75 133.80
39.00 129.00
39.25 122.70
39.50 116.60
39.75 110.90
40.00 105.20
40.25 101.20
40.50 95.90
40.75 91.10
41.00 85.90
41.25 81.40
41.50 78.30
41.75 73.80
42.00 69.80
42.25 65.90
42.50 62.50
42.75 60.20
43.00 56.80
43.25 53.70
43.50 50.70
43.75 48.00
44.00 44.90
44.25 42.80
44.50 40.50
44.75 38.20
45.00 35.50
45.25 33.50
45.50 32.00
45.75 30.20
46.00 28.50
46.25 26.80
46.50 24.60
46.75 23.40
47.00 22.10
47.25 20.60
47.50 19.10
47.75 18.00
48.00 17.10
48.25 16.00
48.50 14.30
48.75 13.30
49.00 12.20
49.25 11.50
49.50 10.50
49.75 9.90
50.00 9.00
50.25 8.40
50.50 7.80
50.75 7.20
51.00 6.50
51.25 6.00
51.50 5.50
51.75 4.80
52.00 4.30
52.25 3.90
52.50 3.60
52.75 3.10
53.00 2.60
53.25 2.50
53.50 2.00
53.75 1.60
54.00 1.50
54.25 1.20
54.50 1.00
54.75 0.80
55.00 0.30
55.25 -0.20
55.50 -0.30
55.75 -0.30
56.00 -0.50
56.25 -0.80
56.50 -1.00
56.75 -1.00
